/*
Trios Ramses radiance sensor 5016
Column 1: Wavelength [nm]
Column 2: Nadir radiance [mW m-2 nm-1 sr-1]
Column 3: Standard deviation of repeated measurements [mW m-2 nm-1 sr-1]
*/
321.782 1.37856 0.0490961 
322.329 1.48241 0.0543955 
325.119 1.61273 0.0578213 
325.609 1.74305 0.0614741 
328.456 1.87243 0.0645241 
328.889 2.00181 0.0682051 
331.793 2.15170 0.0749247 
332.169 2.30159 0.0823701 
335.131 2.46406 0.0898826 
335.450 2.62653 0.0984772 
338.469 2.79678 0.101699 
338.732 2.96704 0.106599 
341.808 3.15825 0.112948 
342.013 3.34946 0.119912 
345.147 3.56440 0.125798 
345.295 3.77934 0.132175 
348.486 4.03138 0.141843 
348.578 4.28342 0.151835 
351.826 4.54567 0.160196 
351.861 4.80793 0.168638 
355.144 5.33553 0.185257 
355.166 5.60711 0.193473 
358.427 5.87869 0.201922 
358.506 6.28167 0.217866 
361.711 6.68465 0.234082 
361.847 7.20170 0.249811 
364.995 7.71876 0.265676 
365.188 8.15832 0.280694 
368.279 8.59788 0.295832 
368.529 8.91368 0.307297 
371.564 9.22949 0.318883 
371.870 9.55370 0.328840 
374.849 9.87791 0.338939 
375.212 10.1936 0.351065 
378.134 10.5093 0.363276 
378.554 10.7201 0.370282 
381.420 10.9309 0.377425 
381.896 11.2123 0.385904 
384.706 11.4937 0.394660 
385.239 12.0100 0.412354 
387.992 12.5263 0.430265 
388.582 13.1086 0.451867 
391.278 13.6910 0.473761 
391.925 14.5042 0.503186 
394.564 15.3174 0.532839 
395.268 16.8274 0.584277 
397.851 18.3375 0.635858 
398.611 20.0674 0.697422 
401.138 21.7973 0.759051 
401.955 22.9772 0.802765 
404.425 24.1571 0.846551 
405.298 24.9023 0.875130 
407.712 25.6474 0.903816 
408.642 26.4124 0.933250 
411.000 27.1773 0.962807 
411.986 27.9084 0.990665 
414.288 28.6395 1.01863 
415.331 29.1956 1.04143 
417.575 29.7517 1.06431 
418.675 30.1298 1.08075 
420.863 30.5080 1.09729 
422.019 30.6999 1.10668 
424.151 30.8919 1.11614 
425.364 30.8386 1.11778 
427.440 30.7853 1.11948 
428.708 31.1172 1.13533 
430.728 31.4491 1.15127 
432.053 32.4437 1.19143 
434.016 33.4382 1.23165 
435.398 34.6291 1.27861 
437.305 35.8200 1.32564 
438.742 37.0167 1.37229 
440.594 38.2135 1.41900 
442.087 39.5797 1.47009 
443.882 40.9460 1.52122 
445.432 42.3054 1.57167 
447.171 43.6648 1.62218 
448.777 44.7334 1.66311 
450.460 45.8020 1.70408 
452.122 46.5486 1.73388 
453.749 47.2952 1.76372 
455.467 47.8389 1.78561 
457.038 48.3826 1.80753 
458.812 48.8405 1.82872 
460.327 49.2984 1.84995 
462.156 49.5792 1.86281 
463.616 49.8600 1.87571 
465.501 50.0906 1.88616 
466.905 50.3212 1.89665 
468.846 50.7819 1.91558 
470.194 51.2425 1.93460 
472.191 52.0415 1.96206 
473.483 52.8404 1.98960 
475.535 53.7837 2.02239 
476.772 54.7269 2.05528 
478.880 55.4718 2.08121 
480.061 56.2167 2.10726 
482.224 56.5301 2.11432 
483.350 56.8435 2.12152 
485.569 57.1919 2.12999 
486.639 57.5403 2.13860 
488.913 58.4204 2.16654 
489.928 59.3004 2.19463 
492.257 60.3932 2.22967 
493.217 61.4860 2.26488 
495.601 62.1391 2.28355 
496.506 62.7923 2.30246 
498.945 63.1256 2.31118 
499.794 63.4589 2.32007 
502.289 63.8943 2.33120 
503.083 64.3297 2.34251 
505.632 64.8606 2.35669 
506.372 65.3914 2.37102 
508.976 65.6342 2.37711 
509.660 65.8769 2.38333 
512.319 65.6346 2.37298 
512.948 65.3924 2.36275 
515.662 65.2458 2.35442 
516.236 65.0993 2.34620 
519.004 65.7538 2.36976 
519.525 66.4083 2.39343 
522.347 67.5525 2.43238 
522.812 68.6967 2.47143 
525.689 69.7708 2.50957 
526.100 70.8450 2.54778 
529.031 71.7564 2.58084 
529.388 72.6678 2.61397 
532.373 73.4546 2.64238 
532.675 74.2415 2.67087 
535.715 74.6188 2.68409 
535.962 74.9962 2.69739 
539.056 75.1711 2.70333 
539.249 75.3460 2.70936 
542.397 75.5007 2.71481 
542.536 75.6555 2.72032 
545.737 75.8298 2.72560 
545.823 76.0042 2.73096 
549.078 76.0457 2.73196 
549.109 76.0873 2.73304 
552.395 75.9565 2.72889 
552.418 75.7175 2.72054 
555.681 75.4785 2.71225 
555.757 75.1710 2.70111 
558.967 74.8636 2.69004 
559.097 74.5490 2.67873 
562.252 74.2345 2.66747 
562.436 73.7550 2.65040 
565.537 73.2756 2.63336 
565.774 72.5165 2.60842 
568.822 71.7575 2.58354 
569.112 70.7581 2.54958 
572.107 69.7587 2.51568 
572.450 68.4737 2.47088 
575.391 67.1887 2.42620 
575.787 65.5888 2.37199 
578.675 63.9890 2.31793 
579.124 62.0197 2.24874 
581.959 60.0505 2.17983 
582.461 57.6103 2.09647 
585.242 55.1702 2.01344 
585.797 52.4505 1.91923 
588.525 49.7308 1.82542 
589.133 47.1878 1.73639 
591.808 44.6448 1.64788 
592.468 42.2872 1.56786 
595.090 39.9297 1.48850 
595.803 37.6204 1.41023 
598.372 35.3112 1.33260 
599.137 33.3609 1.26735 
601.653 31.4105 1.20266 
602.471 30.0750 1.15857 
604.935 28.7396 1.11485 
605.804 27.9133 1.08691 
608.215 27.0871 1.05921 
609.137 26.4974 1.04144 
611.496 25.9077 1.02382 
612.469 25.4440 1.00906 
614.776 24.9802 0.994376 
615.800 24.5996 0.983219 
618.055 24.2190 0.972103 
619.132 23.8416 0.960066 
621.334 23.4642 0.948083 
622.462 23.0340 0.935155 
624.613 22.6038 0.922290 
625.792 22.1986 0.908863 
627.891 21.7933 0.895525 
629.121 21.4703 0.887525 
631.169 21.1473 0.879718 
632.450 20.8864 0.871565 
634.446 20.6255 0.863579 
635.778 20.3757 0.855306 
637.723 20.1260 0.847111 
639.106 19.8366 0.839143 
640.999 19.5472 0.831258 
642.433 19.2046 0.819737 
644.275 18.8619 0.808336 
645.759 18.4831 0.795560 
647.550 18.1042 0.782854 
649.085 17.6501 0.768785 
650.825 17.1960 0.754814 
652.410 16.6497 0.734678 
654.099 16.1033 0.714770 
655.734 15.5916 0.698744 
657.373 15.0798 0.683024 
659.058 14.6933 0.669005 
660.646 14.3068 0.655283 
662.381 13.9931 0.647757 
663.919 13.6794 0.640365 
665.703 13.3938 0.629641 
667.191 13.1083 0.619057 
669.024 12.8564 0.611650 
670.462 12.6046 0.604421 
672.345 12.3922 0.594523 
673.733 12.1799 0.584720 
675.665 12.0019 0.577794 
677.004 11.8240 0.570979 
678.984 11.6196 0.561187 
680.273 11.4151 0.551551 
682.303 11.1007 0.539331 
683.542 10.7862 0.527355 
685.621 10.4210 0.510640 
686.811 10.0558 0.494055 
688.938 9.75245 0.482476 
690.079 9.44910 0.470995 
692.254 9.20617 0.463415 
693.346 8.96325 0.455943 
695.569 8.66150 0.447637 
696.612 8.35976 0.439481 
698.884 7.98536 0.424845 
699.878 7.61097 0.410348 
702.197 7.21819 0.393696 
703.144 6.82541 0.377343 
705.510 6.43019 0.361569 
706.408 6.03498 0.346065 
708.822 5.62954 0.326376 
709.672 5.22409 0.306962 
712.133 4.79726 0.286754 
712.935 4.37042 0.266832 
715.443 3.95721 0.242545 
716.197 3.54400 0.219346 
718.753 3.20117 0.200046 
719.459 2.85834 0.181664 
722.061 2.60334 0.165216 
722.720 2.34833 0.149224 
725.369 2.15409 0.136801 
725.980 1.95986 0.124814 
728.675 1.80847 0.113960 
729.240 1.65708 0.103330 
731.981 1.54600 0.0940794 
732.499 1.43493 0.0850863 
735.286 1.36006 0.0802435 
735.757 1.28520 0.0757103 
738.590 1.23844 0.0705425 
739.014 1.19168 0.0656978 
741.892 1.16625 0.0656473 
742.270 1.14081 0.0684678 
745.194 1.12299 0.0624084 
745.526 1.10517 0.0592151 
748.495 1.09422 0.0580169 
748.781 1.08328 0.0575701 
751.795 1.07413 0.0564501 
752.035 1.06498 0.0558776 
755.094 1.05242 0.0552600 
755.288 1.03987 0.0556293 
758.392 1.02394 0.0516479 
758.540 1.00801 0.0483834 
761.688 0.995508 0.0481459 
761.792 0.983002 0.0485404 
764.984 0.983122 0.0486190 
765.043 0.983243 0.0522247 
768.279 0.992369 0.0503196 
768.292 1.00150 0.0515204 
771.541 1.01464 0.0563041 
771.572 1.01776 0.0541266 
774.789 1.02089 0.0533255 
774.865 1.02680 0.0546344 
778.037 1.03272 0.0569209 
778.156 1.03448 0.0586225 
781.283 1.03623 0.0628750 
781.447 1.04307 0.0586988 
784.528 1.04990 0.0574732 
784.736 1.05903 0.0571539 
787.773 1.06815 0.0601735 
788.024 1.07562 0.0625672 
791.016 1.08309 0.0707390 
791.311 1.09558 0.0663553 
794.259 1.10806 0.0687827 
794.597 1.12036 0.0663607 
797.500 1.13266 0.0701838 
797.881 1.14820 0.0655606 
