/*
Trios Ramses irradiance sensor 5016
In-water, upward looking.

Column 1: Wavelength [nm]
Column 2: Geometric mean irradiance [mW m-2 nm-1]
Column 3: Geometric standard deviation of repeated measurements
*/
318.4    82.040  1.126
321.8   106.000  1.126
325.1   137.500  1.126
328.5   164.800  1.127
331.8   183.000  1.128
335.1   193.700  1.130
338.5   206.400  1.133
341.8   217.500  1.134
345.1   227.700  1.137
348.5   240.900  1.139
351.8   261.200  1.141
355.2   267.600  1.144
358.5   272.000  1.146
361.8   298.000  1.148
365.2   335.600  1.150
368.5   356.300  1.152
371.9   356.800  1.155
375.2   367.400  1.157
378.6   375.700  1.160
381.9   364.200  1.162
385.2   361.900  1.164
388.6   387.600  1.166
391.9   402.700  1.168
395.3   436.000  1.171
398.6   531.300  1.173
402.0   628.400  1.175
405.3   671.100  1.177
408.6   689.300  1.180
412.0   716.400  1.182
415.3   735.300  1.184
418.7   741.200  1.186
422.0   740.200  1.189
425.4   724.500  1.191
428.7   706.200  1.193
432.1   725.700  1.196
435.4   772.500  1.198
438.7   817.000  1.200
442.1   858.600  1.202
445.4   905.700  1.204
448.8   943.800  1.206
452.1   969.000  1.208
455.5   982.700  1.210
458.8   997.100  1.212
462.2  1005.000  1.214
465.5  1003.000  1.216
468.8  1002.000  1.217
472.2  1013.000  1.219
475.5  1032.000  1.221
478.9  1046.000  1.222
482.2  1036.000  1.223
485.6  1015.000  1.224
488.9  1012.000  1.225
492.3  1034.000  1.227
495.6  1044.000  1.228
498.9  1039.000  1.229
502.3  1034.000  1.231
505.6  1040.000  1.232
509.0  1045.000  1.234
512.3  1029.000  1.235
515.7  1004.000  1.236
519.0  1002.000  1.237
522.3  1021.000  1.238
525.7  1039.000  1.240
529.0  1052.000  1.241
532.4  1063.000  1.242
535.7  1063.000  1.243
539.1  1057.000  1.245
542.4  1055.000  1.246
545.7  1058.000  1.247
549.1  1060.000  1.249
552.4  1058.000  1.251
555.8  1049.000  1.252
559.1  1039.000  1.254
562.4  1034.000  1.255
565.8  1028.000  1.257
569.1  1021.000  1.260
572.5  1015.000  1.262
575.8  1009.000  1.265
579.1  1005.000  1.268
582.5   997.400  1.271
585.8   973.300  1.275
589.1   944.900  1.279
592.5   926.700  1.283
595.8   915.800  1.287
599.1   902.100  1.291
602.5   890.400  1.294
605.8   881.600  1.297
609.1   870.100  1.299
612.5   857.500  1.301
615.8   850.300  1.303
619.1   847.000  1.305
622.5   840.500  1.307
625.8   829.400  1.309
629.1   820.100  1.311
632.5   817.300  1.313
635.8   818.900  1.314
639.1   819.100  1.316
642.4   813.300  1.318
645.8   803.500  1.320
649.1   791.700  1.322
652.4   775.500  1.324
655.7   760.500  1.326
659.1   756.500  1.329
662.4   762.000  1.331
665.7   763.300  1.334
669.0   758.000  1.336
672.3   749.600  1.338
675.7   742.500  1.339
679.0   734.900  1.341
682.3   712.900  1.342
685.6   674.700  1.343
688.9   647.700  1.344
692.3   647.100  1.346
695.6   651.500  1.348
698.9   647.200  1.350
702.2   637.700  1.352
705.5   627.100  1.354
708.8   611.400  1.356
712.1   580.200  1.359
715.4   528.700  1.361
718.8   477.100  1.364
722.1   440.300  1.367
725.4   412.100  1.369
728.7   386.100  1.372
732.0   364.900  1.374
735.3   347.200  1.376
738.6   332.500  1.378
741.9   323.100  1.380
745.2   317.700  1.382
748.5   313.300  1.383
751.8   305.800  1.384
755.1   280.800  1.385
758.4   232.200  1.386
761.7   197.100  1.389
765.0   209.400  1.390
768.3   248.200  1.390
771.6   277.200  1.391
774.9   289.700  1.392
778.2   294.400  1.392
781.4   297.300  1.393
784.7   299.200  1.393
788.0   300.400  1.394
791.3   302.100  1.395
794.6   305.200  1.395
797.9   309.600  1.396
801.2   313.500  1.397
804.4   315.400  1.397
807.7   312.000  1.398
811.0   299.000  1.400
814.3   279.400  1.401
817.6   262.400  1.402
820.8   251.400  1.403
824.1   241.000  1.405
827.4   226.800  1.407
830.7   210.400  1.409
833.9   196.900  1.411
837.2   187.900  1.415
840.5   181.100  1.416
843.7   174.400  1.418
847.0   166.400  1.419
850.3   157.500  1.419
853.5   149.800  1.422
856.8   145.200  1.423
860.1   141.000  1.425
863.3   135.900  1.427
866.6   130.100  1.427
869.8   124.900  1.430
873.1   119.700  1.435
876.3   113.900  1.432
879.6   108.000  1.436
882.8   101.600  1.439
886.1    95.380  1.441
889.3    88.520  1.442
892.6    79.870  1.448
895.8    70.830  1.447
899.1    63.710  1.447
902.3    58.560  1.448
905.6    54.060  1.456
908.8    49.900  1.456
912.0    45.250  1.459
915.3    40.850  1.457
918.5    36.610  1.473
921.7    31.780  1.484
925.0    26.110  1.464
928.2    20.220  1.470
931.4    14.940  1.455
934.6    11.680  1.409
937.9     9.872  1.376
947.5     8.008  1.455
950.7     8.628  1.530
