/*
Trios Ramses radiance sensor 5016
In-water, downward looking.

Column 1: Wavelength [nm]
Column 2: Geometric mean radiance [mW m-2 nm-1 sr-1]
Column 3: Geometric standard deviation of repeated measurements
*/
319.0   1.2710  1.040
322.3   1.4780  1.042
325.6   1.7390  1.041
328.9   1.9960  1.039
332.2   2.2940  1.040
335.5   2.6180  1.041
338.7   2.9580  1.040
342.0   3.3390  1.040
345.3   3.7680  1.039
348.6   4.2710  1.039
351.9   4.7930  1.039
355.1   5.3190  1.039
358.4   5.8610  1.038
361.7   6.6650  1.039
365.0   7.6960  1.039
368.3   8.5720  1.039
371.6   9.2020  1.039
374.8   9.8500  1.039
378.1  10.4800  1.039
381.4  10.9000  1.039
384.7  11.4600  1.039
388.0  12.4900  1.039
391.3  13.6500  1.040
394.6  15.2800  1.040
397.9  18.2900  1.040
401.1  21.7400  1.040
404.4  24.1000  1.041
407.7  25.5800  1.041
411.0  27.1100  1.041
414.3  28.5700  1.042
417.6  29.6800  1.042
420.9  30.4300  1.042
424.2  30.8200  1.043
427.4  30.7100  1.043
430.7  31.3800  1.043
434.0  33.3600  1.044
437.3  35.7400  1.044
440.6  38.1300  1.044
443.9  40.8600  1.044
447.2  43.5700  1.044
450.5  45.7000  1.044
453.7  47.2000  1.045
457.0  48.2800  1.045
460.3  49.2000  1.045
463.6  49.7600  1.045
466.9  50.2200  1.045
470.2  51.1400  1.045
473.5  52.7400  1.045
476.8  54.6200  1.045
480.1  56.1100  1.045
483.4  56.7300  1.045
486.6  57.4300  1.045
489.9  59.1800  1.045
493.2  61.3600  1.044
496.5  62.6600  1.044
499.8  63.3300  1.044
503.1  64.1900  1.044
506.4  65.2500  1.043
509.7  65.7300  1.043
512.9  65.2500  1.043
516.2  64.9500  1.043
519.5  66.2600  1.043
522.8  68.5400  1.043
526.1  70.6800  1.043
529.4  72.5000  1.043
532.7  74.0600  1.043
536.0  74.8100  1.042
539.2  75.1600  1.042
542.5  75.4600  1.042
545.8  75.8100  1.042
549.1  75.8900  1.042
552.4  75.7500  1.042
555.7  75.2700  1.042
559.0  74.6500  1.042
562.3  74.0200  1.042
565.5  73.0600  1.042
568.8  71.5500  1.042
572.1  69.5500  1.042
575.4  66.9900  1.042
578.7  63.8000  1.042
582.0  59.8700  1.042
585.2  55.0000  1.042
588.5  49.5700  1.042
591.8  44.5000  1.042
595.1  39.8000  1.042
598.4  35.1900  1.042
601.7  31.3000  1.043
604.9  28.6400  1.043
608.2  26.9900  1.043
611.5  25.8100  1.043
614.8  24.8900  1.044
618.1  24.1300  1.044
621.3  23.3800  1.044
624.6  22.5200  1.045
627.9  21.7100  1.045
631.2  21.0700  1.045
634.4  20.5500  1.046
637.7  20.0500  1.046
641.0  19.4700  1.046
644.3  18.7900  1.046
647.6  18.0300  1.047
650.8  17.1300  1.047
654.1  16.0400  1.048
657.4  15.0200  1.049
660.6  14.2500  1.049
663.9  13.6200  1.050
667.2  13.0500  1.051
670.5  12.5500  1.051
673.7  12.1300  1.051
677.0  11.7700  1.052
680.3  11.3700  1.052
683.5  10.7400  1.052
686.8  10.0100  1.052
690.1   9.4060  1.053
693.3   8.9230  1.054
696.6   8.3200  1.055
699.9   7.5740  1.057
703.1   6.7920  1.058
706.4   6.0050  1.060
709.7   5.1970  1.062
712.9   4.3470  1.064
716.2   3.5250  1.065
719.5   2.8430  1.066
722.7   2.3350  1.066
726.0   1.9490  1.066
729.2   1.6480  1.065
732.5   1.4280  1.062
735.8   1.2790  1.062
739.0   1.1870  1.058
742.3   1.1350  1.062
745.5   1.1010  1.056
748.8   1.0790  1.056
752.0   1.0610  1.055
755.3   1.0350  1.057
758.5   1.0050  1.051
761.8   0.9789  1.052
765.0   0.9804  1.058
768.3   0.9976  1.057
771.5   1.0110  1.059
774.8   1.0170  1.055
778.0   1.0280  1.058
781.3   1.0320  1.064
784.5   1.0460  1.057
787.8   1.0640  1.061
791.0   1.0780  1.070
794.3   1.1030  1.065
797.5   1.1280  1.065
800.7   1.1580  1.060
804.0   1.1730  1.057
807.2   1.1930  1.067
810.5   1.1910  1.063
813.7   1.1790  1.072
816.9   1.1670  1.065
820.2   1.1610  1.060
823.4   1.1490  1.058
826.6   1.1330  1.054
829.9   1.1130  1.054
833.1   1.1070  1.051
836.3   1.1130  1.063
839.6   1.1300  1.056
842.8   1.1390  1.059
846.0   1.1470  1.044
849.2   1.1620  1.056
852.5   1.1830  1.065
855.7   1.2170  1.052
858.9   1.2330  1.053
862.1   1.2480  1.051
865.3   1.2870  1.055
868.6   1.3150  1.060
871.8   1.3400  1.070
875.0   1.3750  1.046
878.2   1.4070  1.052
881.4   1.4410  1.052
884.6   1.4720  1.082
887.8   1.5130  1.050
891.1   1.5620  1.060
894.3   1.6160  1.063
897.5   1.6690  1.056
900.7   1.7100  1.063
903.9   1.7840  1.057
907.1   1.8640  1.063
910.3   1.9250  1.066
913.5   2.0120  1.064
916.7   2.0780  1.070
919.9   2.1760  1.073
923.1   2.2910  1.067
926.3   2.3710  1.090
929.5   2.5110  1.066
932.7   2.7100  1.076
935.9   2.9110  1.051
939.0   3.1260  1.065
942.2   3.4160  1.051
945.4   3.7220  1.051
948.6   4.0530  1.058
951.8   4.3930  1.045
